%time,field.x,field.y,field.z
1504378069215521911,-4.09545183182,5.67023706436,-0.54983407259
1504378069395245505,-4.04668092728,5.60494852066,-0.552127242088
1504378069532400869,-3.985632658,5.52880954742,-0.5545129776
1504378069676655817,-3.94352769852,5.46880245209,-0.548421263695
1504378069859369775,-3.91179823875,5.41937303543,-0.544414758682
1504378069993395192,-3.87417721748,5.36820220947,-0.536287784576
1504378070152472380,-3.83106851578,5.30571603775,-0.535431742668
1504378070329529515,-3.78706622124,5.24815702438,-0.538320422173
1504378070455943629,-3.73767256737,5.19760990143,-0.535735189915
1504378070631966494,-3.69772338867,5.16717433929,-0.53506141901
1504378070780490296,-3.65329241753,5.13187646866,-0.530259549618
1504378070921033369,-3.61018848419,5.08493947983,-0.521263480186
1504378071076601702,-3.56678557396,5.04199504852,-0.52209097147
1504378071239150817,-3.52338075638,5.00357580185,-0.524318516254
1504378071381178056,-3.48402571678,4.95558023453,-0.527272701263
1504378071541191389,-3.43733930588,4.91768074036,-0.527333974838
1504378071716607014,-3.39597272873,4.88725662231,-0.523907721043
1504378071923764931,-3.34665679932,4.84589338303,-0.533317506313
1504378072236098108,-3.25343847275,4.74080038071,-0.553246498108
1504378072400215087,-3.20996260643,4.69931221008,-0.558282613754
1504378072739006441,-3.12998604774,4.61804580688,-0.55048841238
1504378072883482431,-3.09942269325,4.59450626373,-0.539075136185
1504378073221207014,-3.03991436958,4.54040527344,-0.505231738091
1504378073359484722,-3.01929688454,4.52058029175,-0.479074925184
1504378073690019930,-3.01193904877,4.45020103455,-0.228504687548
1504378073832509305,-3.02574110031,4.40113353729,0.0538191460073
1504378074151970451,-3.05712485313,4.28195905685,0.835210740566
1504378074295195659,-3.07824587822,4.25386714935,1.22383987904
1504378074619144357,-3.08896303177,4.2714138031,1.83389294147
1504378074759683576,-3.07644820213,4.27654409409,2.0572707653
1504378074965674096,-3.05272293091,4.26358366013,2.24888825417
1504378075091798836,-3.02940368652,4.24348640442,2.42888474464
1504378075238988107,-3.01086425781,4.22624444962,2.60150241852
1504378075552382690,-2.94221997261,4.22536325455,2.95235991478
1504378075716306440,-2.8601026535,4.24349737167,3.13028740883
1504378075891738575,-2.75002980232,4.26649522781,3.30534911156
1504378076031341596,-2.62171387672,4.27408695221,3.46565294266
1504378076171233211,-2.47486877441,4.24199724197,3.64605665207
1504378076354853002,-2.33964419365,4.17326068878,3.83609104156
1504378076472730919,-2.21851968765,4.08598279953,4.02683782578
1504378076632591387,-2.11131644249,3.99724698067,4.22187614441
1504378076834184460,-2.00267457962,3.91692972183,4.41472578049
1504378076937221023,-1.89235973358,3.83537554741,4.59736919403
1504378077096806491,-1.78251743317,3.75643205643,4.77070808411
1504378077294048418,-1.69232773781,3.70056414604,4.94214487076
1504378077409842950,-1.62222611904,3.6743209362,5.08453035355
1504378077558941752,-1.5981554985,3.67825293541,5.21269178391
1504378077757516283,-1.59919059277,3.6825363636,5.33121442795
1504378077866341856,-1.61143732071,3.68599915504,5.43933296204
1504378078031518314,-1.62806773186,3.69565796852,5.55074310303
1504378078226195762,-1.63976120949,3.71379876137,5.66037511826
1504378078343550189,-1.65443360806,3.74341225624,5.76039934158
1504378078496028418,-1.66571366787,3.76910352707,5.84794473648
1504378078677655345,-1.67912065983,3.78468203545,5.95456695557
1504378078818095449,-1.69432973862,3.78945970535,6.06489276886
1504378078961612168,-1.69662368298,3.76268744469,6.17678594589
1504378079151549824,-1.68188035488,3.70818567276,6.29075288773
1504378079274805345,-1.63153421879,3.60287499428,6.40164422989
1504378079430410501,-1.55201518536,3.43301272392,6.53607845306
1504378079621756178,-1.49306070805,3.19842743874,6.67598819733
1504378079745711751,-1.41709327698,2.959649086,6.81332969666
1504378079900608626,-1.32115066051,2.69668006897,6.96499872208
1504378080075659928,-1.21883511543,2.43794941902,7.10394477844
1504378080218403313,-1.1144682169,2.16645622253,7.24181652069
1504378080372790292,-1.00728666782,1.89313793182,7.38039398193
1504378080537421282,-0.932829499245,1.62564957142,7.53095388412
1504378080689818209,-0.891687452793,1.40565896034,7.7037820816
1504378080841066334,-0.884794533253,1.25577437878,7.90996646881
1504378081009069927,-0.899924099445,1.17920267582,8.1517457962
1504378081152647271,-0.903796613216,1.11743021011,8.42397594452
1504378081311155604,-0.894284963608,1.08282899857,8.6874332428
1504378081476575917,-0.873701453209,1.0773525238,8.9148979187
1504378081608851281,-0.856000721455,1.09492373466,9.1185131073
1504378081762654823,-0.824337303638,1.10636806488,9.29295635223
1504378081950025396,-0.805424392223,1.13222432137,9.44859886169
1504378082075888625,-0.806622445583,1.16145241261,9.60124778748
1504378082229737010,-0.819934308529,1.18825864792,9.75677680969
1504378082385685292,-0.829012036324,1.21576857567,9.92197036743
1504378082544327844,-0.83084154129,1.23918664455,10.0485897064
1504378082707435396,-0.815810441971,1.24028229713,10.1546859741
1504378082856804093,-0.805615782738,1.24765646458,10.2470216751
1504378083010875656,-0.808719277382,1.26796996593,10.3340415955
1504378083176837114,-0.825843036175,1.30666649342,10.4228954315
1504378083322526593,-0.839346528053,1.33405852318,10.4991283417
1504378083473734302,-0.844615995884,1.35231256485,10.5666627884
1504378083788079510,-0.828306674957,1.3704148531,10.6535110474
1504378083951473416,-0.819314241409,1.38119935989,10.6907815933
1504378084249155395,-0.832714796066,1.40594899654,10.7611541748
1504378084411785603,-0.840930998325,1.41113770008,10.7896270752
1504378084717673103,-0.841122627258,1.40173614025,10.8154325485
1504378084879373520,-0.845976412296,1.4055378437,10.8289489746
1504378085067447009,-0.850948572159,1.4094004631,10.8482656479
1504378085181449926,-0.847202897072,1.40323328972,10.8616914749
1504378085340452478,-0.847573757172,1.40693986416,10.8573846817
1504378085528313728,-0.841527342796,1.40962171555,10.8434658051
1504378085646126801,-0.837392866611,1.40703082085,10.8266429901
1504378085815734978,-0.840936243534,1.39942765236,10.8123874664
1504378085986687582,-0.861229240894,1.3965651989,10.8243217468
1504378086108796436,-0.881107032299,1.39489841461,10.8478822708
1504378086280537113,-0.893417179585,1.38815438747,10.873044014
1504378086450606071,-0.892885506153,1.37702894211,10.8975439072
1504378086577844717,-0.890181779861,1.37728977203,10.9209461212
1504378086745329248,-0.895066618919,1.39858150482,10.9317331314
1504378086912753779,-0.895597934723,1.41486477852,10.9370727539
1504378087053610706,-0.89139175415,1.41354358196,10.9282436371
1504378087213648571,-0.885233819485,1.39705884457,10.9180669785
1504378087376682008,-0.884719192982,1.37331259251,10.9081544876
1504378087509806852,-0.880865991116,1.35688245296,10.9061040878
1504378087677616279,-0.874978482723,1.34370982647,10.9238986969
1504378087830646071,-0.863717377186,1.33544671535,10.9494380951
1504378087976245394,-0.842092692852,1.32816267014,10.9738464355
1504378088151523935,-0.818566679955,1.31797778606,10.9903364182
1504378088297505550,-0.797055006027,1.30975079536,11.0002851486
1504378088444013050,-0.781326472759,1.3089568615,11.0049571991
1504378088617532320,-0.778442680836,1.32087600231,10.9956445694
1504378088768216956,-0.776607275009,1.33307445049,10.9729700089
1504378088943080237,-0.782324194908,1.35473072529,10.9460582733
1504378089059941070,-0.789212226868,1.3767465353,10.9196271896
1504378089232582685,-0.793916940689,1.38887345791,10.8947143555
1504378089379362685,-0.811048150063,1.39246380329,10.8703041077
1504378089533383622,-0.832253217697,1.39314258099,10.8490514755
1504378089701342528,-0.851798057556,1.3906069994,10.8266515732
1504378089850607580,-0.865165889263,1.3867367506,10.8156242371
1504378089990124299,-0.863550722599,1.38449442387,10.794046402
1504378090160818778,-0.857554614544,1.38237404823,10.7296190262
1504378090325104872,-0.843503534794,1.37961471081,10.6017503738
1504378090459010705,-0.830962717533,1.38025510311,10.4600372314
1504378090636106695,-0.817112624645,1.37292277813,10.3218669891
1504378090770252684,-0.813969314098,1.38086485863,10.2073230743
1504378090940401642,-0.807621955872,1.37764716148,10.104847908
1504378091105638622,-0.804192662239,1.3604016304,10.0330057144
1504378091238964403,-0.800310373306,1.3370269537,9.98194980621
1504378091414421746,-0.792430520058,1.32221293449,9.94336128235
1504378091560804767,-0.794191658497,1.29473352432,9.96645450592
1504378091707714455,-0.796712756157,1.2647446394,10.0452270508
1504378091868122736,-0.801220715046,1.23260521889,10.1378765106
1504378092032067632,-0.813415527344,1.20432782173,10.2220916748
1504378092174562423,-0.800179421902,1.16747415066,10.2892055511
1504378092341336954,-0.802923262119,1.11685883999,10.3424634933
1504378092497437267,-0.818342030048,1.07665765285,10.3817558289
1504378092639085808,-0.840135574341,1.04747951031,10.4080209732
1504378092814776798,-0.877258002758,1.03055822849,10.443520546
1504378092947300288,-0.909982442856,1.01965582371,10.4832315445
1504378093113777058,-0.94339287281,1.0310549736,10.5186309814
1504378093285643100,-0.973845660686,1.06139028072,10.5518188477
1504378093416938256,-0.99560290575,1.10233676434,10.5762033463
1504378093571987631,-1.00747931004,1.14687848091,10.5890712738
1504378093749509454,-1.01605963707,1.18310368061,10.6042547226
1504378093881175443,-1.02146887779,1.20829689503,10.6267871857
1504378094037637891,-1.01977884769,1.22576844692,10.6468582153
1504378094213277891,-1.01481246948,1.23675942421,10.656580925
1504378094346952735,-0.999875724316,1.23946416378,10.6706924438
1504378094507332735,-0.98803794384,1.24248552322,10.6787519455
1504378094673130651,-0.978651404381,1.24702060223,10.6747980118
1504378094813308985,-0.967459261417,1.25402951241,10.6612167358
1504378094968358516,-0.956604778767,1.26578450203,10.637887001
1504378095147510287,-0.95199239254,1.27717769146,10.6159162521
1504378095276675547,-0.94802570343,1.28149175644,10.5938415527
1504378095435055443,-0.942307770252,1.28012430668,10.5736618042
1504378095643039661,-0.940415918827,1.28107845783,10.5429735184
1504378095749107057,-0.935682415962,1.28941273689,10.508852005
1504378095914528516,-0.932855427265,1.29720520973,10.4707803726
1504378096219518776,-0.941898524761,1.31160199642,10.4138746262
1504378096379950599,-0.950864672661,1.31188821793,10.3868455887
1504378096564412161,-0.946775794029,1.31146132946,10.3604393005
1504378096678936432,-0.941434562206,1.31736171246,10.3325185776
1504378096845511692,-0.93636405468,1.33233428001,10.3145294189
1504378097023031953,-0.934108018875,1.35418009758,10.2964410782
1504378097142003098,-0.954914033413,1.3870061636,10.2693557739
1504378097322304921,-0.962392628193,1.41152238846,10.2484817505
1504378097481589609,-0.955539047718,1.42642402649,10.2463054657
1504378097613389244,-0.939523398876,1.4308257103,10.2576875687
1504378097780317994,-0.92667889595,1.42870748043,10.291762352
1504378097941700338,-0.916550338268,1.42088425159,10.317358017
1504378098087653306,-0.895598292351,1.41092348099,10.3439064026
1504378098223984817,-0.864853620529,1.39903354645,10.368771553
1504378098416100129,-0.840948998928,1.38522458076,10.3933744431
1504378098531885754,-0.826283216476,1.38607943058,10.4148254395
1504378098692042108,-0.817790091038,1.40052616596,10.4369277954
1504378098873605806,-0.813894867897,1.41866290569,10.4483327866
1504378099011149191,-0.817017018795,1.43631076813,10.4601144791
1504378099167807368,-0.819307565689,1.39354002476,10.465965271
1504378099334519868,-0.821267545223,1.36095499992,10.4760341644
1504378099484935598,-0.825487136841,1.34294819832,10.4797391891
1504378099634532004,-0.830525517464,1.33984470367,10.470867157
1504378099811265024,-0.833287298679,1.35702872276,10.4581489563
1504378099955907160,-0.83012765646,1.38353419304,10.4530591965
1504378100106085233,-0.824979364872,1.4179598093,10.4509096146
1504378100266970493,-0.819340288639,1.45543086529,10.4642982483
1504378100426559451,-0.815671563148,1.48284840584,10.4897089005
1504378100577967785,-0.825346589088,1.5106818676,10.5241222382
1504378100743676795,-0.834664881229,1.51746821404,10.5514163971
1504378100889320128,-0.850884914398,1.51476681232,10.5854415894
1504378101040387941,-0.868929982185,1.50141108036,10.6118679047
1504378101215763149,-0.88357681036,1.46993768215,10.6459207535
1504378101362867836,-0.88972902298,1.44272470474,10.687869072
1504378101501218930,-0.900243163109,1.42196393013,10.7131814957
1504378101679215388,-0.917273521423,1.40970778465,10.7376213074
1504378101816256222,-0.939079046249,1.40262889862,10.7580518723
1504378101965346586,-0.952274501324,1.4013646841,10.7912111282
1504378102131617576,-0.956388354301,1.39753043652,10.8250904083
1504378102273747263,-0.952136099339,1.398229599,10.8513298035
1504378102428756638,-0.942099988461,1.4078360796,10.8720016479
1504378102626426950,-0.936335802078,1.42558896542,10.8923034668
1504378102740459398,-0.926534533501,1.44742977619,10.9159021378
1504378102900377680,-0.91571199894,1.46402740479,10.9430294037
1504378103052243617,-0.901824176311,1.47381448746,10.9586515427
1504378103207409659,-0.888429403305,1.4894297123,10.9625654221
1504378103363420336,-0.876009345055,1.50241434574,10.959227562
1504378103515100961,-0.866640210152,1.51624846458,10.9407300949
1504378103663238721,-0.85771381855,1.52620279789,10.9131164551
1504378103831726794,-0.842848658562,1.51351749897,10.8727464676
1504378103974044085,-0.816720664501,1.45836925507,10.8157405853
1504378104130197367,-0.782500863075,1.33357417583,10.7486133575
1504378104287562210,-0.739696145058,1.12463223934,10.6660737991
1504378104442251169,-0.688625156879,0.839845478535,10.5908241272
1504378104588356846,-0.636665225029,0.477713555098,10.5464544296
1504378104759378252,-0.578993856907,0.0756490379572,10.5227079391
1504378104904347262,-0.531232357025,-0.329068750143,10.5372056961
1504378105057534137,-0.475978910923,-0.727218389511,10.592215538
1504378105231180908,-0.394542247057,-1.10975646973,10.6675510406
1504378105369750335,-0.309797853231,-1.47548699379,10.7359838486
1504378105537973251,-0.242558047175,-1.79771053791,10.806968689
1504378105685143095,-0.185823634267,-2.07261013985,10.8872117996
1504378105834082366,-0.142838269472,-2.28818416595,10.9668540955
1504378106014607210,-0.119272246957,-2.43377184868,11.039642334
1504378106158806689,-0.109722062945,-2.51473546028,11.0999498367
1504378106296906012,-0.109167359769,-2.54826521873,11.0989770889
1504378106467403616,-0.112304896116,-2.54734754562,11.0613145828
1504378106632310178,-0.124019682407,-2.51826334,11.0106248856
1504378106773284345,-0.13756878674,-2.47251152992,10.9498500824
1504378106938422105,-0.140200987458,-2.39684271812,10.8931875229
1504378107253610022,-0.134052932262,-2.20240092278,10.7701568604
1504378107414534449,-0.122044861317,-2.09527873993,10.7097558975
1504378107710763355,-0.076610095799,-1.89766228199,10.5643205643
1504378107874134553,-0.0527752488852,-1.79612600803,10.4883108139
1504378108176606375,0.014358183369,-1.6123496294,10.3510017395
1504378108346759032,0.041000764817,-1.53067946434,10.3004922867
1504378108519807625,0.0624222382903,-1.44809603691,10.2490539551
1504378108647579292,0.0801717042923,-1.36341881752,10.1899299622
1504378108809698823,0.0938324034214,-1.29230284691,10.1307840347
1504378108976294552,0.109329402447,-1.2233799696,10.0841875076
1504378109099407000,0.128979727626,-1.16152584553,10.0448246002
1504378109267736792,0.155537009239,-1.1043368578,10.0248889923
1504378109458741427,0.183905601501,-1.04163980484,10.0056600571
1504378109572386219,0.213030293584,-0.977129757404,9.9942741394
1504378109731773354,0.235374718904,-0.904787421227,9.97859764099
1504378109900334396,0.245394691825,-0.833120822906,9.94314289093
1504378110048231114,0.242142513394,-0.764851927757,9.88443565369
1504378110199998666,0.23787881434,-0.702618837357,9.82839202881
1504378110384384343,0.235803097486,-0.634199082851,9.77387523651
1504378110513643250,0.229211896658,-0.556993424892,9.71954250336
1504378110667948510,0.220791533589,-0.472772181034,9.67019462585
1504378110831317364,0.209717571735,-0.387655138969,9.63708019257
1504378110985541218,0.21073064208,-0.292604833841,9.61029624939
1504378111138988301,0.205119356513,-0.206864133477,9.58580780029
1504378111294448093,0.195345059037,-0.116954639554,9.5604057312
1504378111444232833,0.182751983404,-0.0263908654451,9.55376148224
1504378111612626635,0.171980947256,0.054247956723,9.56340694427
1504378111783176791,0.173327386379,0.124603897333,9.57688999176
1504378111908720280,0.176197454333,0.204007282853,9.57738208771
1504378112080862051,0.181291431189,0.291875958443,9.56833648682
1504378112224363249,0.183807730675,0.389300137758,9.54987239838
1504378112378435124,0.195599988103,0.48972722888,9.53567504883
1504378112543602520,0.212750867009,0.585198223591,9.51023769379
1504378112687278405,0.225993007421,0.678596436977,9.48885917664
1504378112837355905,0.237089216709,0.770720005035,9.48558616638
1504378113008864238,0.25871694088,0.867415189743,9.50865650177
1504378113150802103,0.276831388474,0.968543887138,9.53169727325
1504378113306808978,0.294705152512,1.06351423264,9.54527378082
1504378113456968144,0.316757887602,1.15500462055,9.54782772064
1504378113627343717,0.346386373043,1.25262904167,9.54912471771
1504378113769470019,0.36191701889,1.35759818554,9.54328632355
1504378113934143248,0.380019903183,1.46818649769,9.52861690521
1504378114078049915,0.399252206087,1.57761752605,9.50954627991
1504378114238684290,0.419443339109,1.69013094902,9.488697052
1504378114385566581,0.441878348589,1.80228042603,9.46427726746
1504378114541342154,0.469993621111,1.91321229935,9.45434856415
1504378114711589810,0.50417804718,2.02803349495,9.45903968811
1504378114851327258,0.536028146744,2.14218449593,9.4708366394
1504378115014850331,0.566920280457,2.26127791405,9.49571609497
1504378115178710175,0.596001446247,2.36416244507,9.52482891083
1504378115329120383,0.615715265274,2.45636606216,9.5619726181
1504378115477548196,0.634354770184,2.54737830162,9.58488845825
1504378115643260956,0.656256020069,2.6370139122,9.61122226715
1504378115787228768,0.687297463417,2.7247543335,9.65924549103
1504378115943278195,0.721948444843,2.80977773666,9.70898723602
1504378116112775227,0.751917719841,2.89448666573,9.77774906158
1504378116255893404,0.777005136013,2.98040676117,9.85503387451
1504378116426639810,0.799515485764,3.06590151787,9.92558670044
1504378116581119341,0.816552400589,3.15265965462,9.98214244843
1504378116719831060,0.834726393223,3.23735523224,10.0149745941
1504378116879423403,0.851311743259,3.31734418869,10.0440483093
1504378117046403716,0.86435008049,3.39160847664,10.0837697983
1504378117188956685,0.879594624043,3.46978569031,10.1290550232
1504378117362386580,0.895352780819,3.56269049644,10.1735219955
1504378117527264497,0.933062553406,3.66736030579,10.2045164108
1504378117656375486,0.979439795017,3.77422523499,10.1944217682
1504378117824421320,1.03136003017,3.88566946983,10.1717891693
1504378117967771528,1.07828700542,3.98573732376,10.1425180435
1504378118117144392,1.11599135399,4.07958984375,10.1188488007
1504378118292043195,1.161490798,4.17698860168,10.1078281403
1504378118437695017,1.21185648441,4.2736158371,10.1119861603
1504378118594175694,1.25756955147,4.36729764938,10.1345148087
1504378118760244080,1.29660737514,4.46351575851,10.1690597534
1504378118893525330,1.33927643299,4.5649971962,10.1868629456
1504378119237417048,1.42990899086,4.78339767456,10.1618852615
1504378119356096996,1.46235203743,4.87995052338,10.1458749771
1504378119690500538,1.51267647743,5.04192352295,10.1414060593
1504378119828187152,1.54339087009,5.11835432053,10.1785316467
1504378120160275225,1.61845529079,5.32056283951,10.2465782166
1504378120287566631,1.66415834427,5.43629264832,10.2388067245
1504378120628107308,1.7505645752,5.67305469513,10.1072883606
1504378120765108975,1.79172003269,5.77743673325,10.0305013657
